# Data of the correlation along the created chain
#
# Step	Correlation
0	0.499928
1	0.250077
2	0.125103
3	0.062581
4	0.031320
5	0.015667
6	0.007839
7	0.003921
8	0.001964
9	0.000977
10	0.000488
11	0.000250
12	0.000128
13	0.000066
14	0.000035
15	0.000020
16	0.000011
17	0.000007
18	0.000004
19	0.000003
